Raw,Filtered
0.00,-0.09
0.00,0.18
0.00,-0.14
0.00,0.03
0.00,0.09
0.00,-0.17
0.00,0.13
1.00,0.21
0.00,0.07
0.00,0.42
0.00,0.22
0.00,0.37
0.00,0.31
0.00,-0.04
0.00,0.08
0.00,-0.16
0.00,-0.21
0.00,0.02
0.00,-0.15
0.00,0.08
0.00,0.14
0.00,-0.02
0.00,0.18
0.00,-0.01
0.00,-0.07
0.00,0.06
0.00,-0.16
0.00,-0.00
0.00,0.03
0.00,-0.09
0.00,0.12
0.00,-0.00
0.00,-0.01
0.00,0.10
0.00,-0.09
0.00,0.02
0.00,0.01
0.00,-0.10
0.00,0.08
39.00,9.68
460.00,487.03
460.00,1026.46
448.00,1800.12
462.00,2513.71
463.00,2917.17
461.00,2936.90
464.00,2640.54
465.00,2187.11
463.00,1763.03
466.00,1514.43
473.00,1499.68
476.00,1684.52
475.00,1952.56
476.00,2225.81
479.00,2398.41
447.00,2400.98
448.00,2280.15
452.00,2079.32
454.00,1885.31
455.00,1766.98
461.00,1756.60
466.00,1839.57
467.00,1972.90
467.00,2104.46
476.00,2198.97
446.00,2200.19
451.00,2147.80
451.00,2044.16
456.00,1944.26
454.00,1878.23
460.00,1872.32
466.00,1918.61
479.00,2006.32
456.00,2076.08
445.00,2114.64
447.00,2101.03
445.00,2038.86
447.00,1963.55
447.00,1901.35
467.00,1891.77
473.00,1927.30
474.00,2002.49
477.00,2091.05
477.00,2159.85
480.00,2194.71
447.00,2158.09
449.00,2091.16
447.00,1992.96
450.00,1908.68
446.00,1858.01
452.00,1860.88
451.00,1899.33
455.00,1962.06
458.00,2023.46
462.00,2069.06
467.00,2092.60
469.00,2094.32
459.00,2072.09
448.00,2032.46
0.00,401.68
0.00,526.66
0.00,413.14
0.00,169.69
0.00,-115.27
0.00,-306.64
0.00,-353.13
0.00,-290.34
0.00,-131.04
0.00,37.47
0.00,145.84
445.00,306.10
447.00,388.72
452.00,525.46
457.00,722.29
457.00,907.51
460.00,1059.51
475.00,1156.81
479.00,1167.28
479.00,1137.23
446.00,1075.04
460.00,1014.70
465.00,988.05
467.00,984.44
471.00,1004.13
471.00,1050.59
475.00,1087.40
443.00,1103.54
443.00,1111.64
434.00,1082.15
431.00,1045.97
426.00,1007.16
425.00,967.28
422.00,951.77
420.00,947.95
419.00,951.01
419.00,968.96
454.00,988.63
447.00,998.48
448.00,1015.48
452.00,1021.76
455.00,1030.19
458.00,1039.01
461.00,1039.03
460.00,1045.41
461.00,1050.22
461.00,1050.05
464.00,1058.02
465.00,1059.75
463.00,1059.66
464.00,1065.46
465.00,1063.68
465.00,1064.26
467.00,1067.98
467.00,1065.13
467.00,1068.22
466.00,1070.42
465.00,1068.08
467.00,1072.00
464.00,1070.27
465.00,1067.67
463.00,1068.84
458.00,1063.34
458.00,1060.01
465.00,1061.09
467.00,1057.31
471.00,1060.72
472.00,1066.51
478.00,1072.52
459.00,1077.09
446.00,1075.84
445.00,1068.10
446.00,1057.38
447.00,1039.14
450.00,1024.05
453.00,1017.82
456.00,1016.24
457.00,1024.72
459.00,1038.49
461.00,1049.79
461.00,1061.27
460.00,1066.02
460.00,1064.32
462.00,1062.74
463.00,1057.14
466.00,1053.97
467.00,1055.91
471.00,1059.31
470.00,1066.21
469.00,1074.52
478.00,1081.94
477.00,1088.08
475.00,1091.21
474.00,1091.07
457.00,1086.29
459.00,1080.04
0.00,1077.50
0.00,994.93
0.00,732.56
0.00,377.68
0.00,27.67
0.00,-214.78
0.00,-299.71
1.00,-249.61
0.00,-107.84
1.00,52.85
0.00,164.06
0.00,205.53
0.00,150.55
0.00,84.97
0.00,-7.59
0.00,-80.40
0.00,-109.78
0.00,-77.38
0.00,-49.00
0.00,-17.97
0.00,31.54
0.00,29.98
0.00,26.84
0.00,16.07
0.00,-0.49
0.00,-6.73
0.00,-12.51
0.00,-13.27
0.00,-4.38
0.00,-0.67
0.00,4.58
0.00,9.65
0.00,5.58
0.00,4.33
0.00,1.63
0.00,-4.43
0.00,-3.23
0.00,-3.61
0.00,-3.86
0.00,1.12
0.00,0.97
0.00,1.56
0.00,3.74
0.00,0.37
0.00,0.25
0.00,0.33
0.00,-2.62
0.00,-0.65
0.00,-0.41
0.00,-1.38
0.00,1.44
1.00,0.75
0.00,0.15
0.00,1.92
0.00,-0.25
0.00,-0.03
0.00,0.74
0.00,-1.32
0.00,0.06
0.00,0.25
1.00,-0.73
0.00,1.03
0.00,0.43
0.00,-0.10
0.00,1.34
0.00,-0.22
0.00,-0.19
0.00,0.60
0.00,-0.96
0.00,-0.00
0.00,0.31
0.00,-0.75
0.00,0.62
0.00,0.18
0.00,-0.43
0.00,0.74
0.00,-0.30
0.00,-0.30
0.00,0.53
0.00,-0.60
0.00,0.04
0.00,0.39
0.00,-0.56
0.00,0.40
65.00,16.52
0.00,9.59
0.00,18.66
0.00,22.46
136.00,55.18
0.00,36.23
241.00,150.90
0.00,178.28
91.00,272.25
0.00,288.91
401.00,371.86
0.00,328.89
262.00,443.46
0.00,434.11
470.00,534.79
0.00,506.39
385.00,587.63
0.00,575.51
0.00,574.79
235.00,545.68
0.00,383.76
0.00,259.24
0.00,157.51
170.00,132.83
0.00,66.75
450.00,220.50
448.00,359.57
445.00,566.00
479.00,815.92
473.00,1030.34
469.00,1168.94
462.00,1219.95
458.00,1187.28
453.00,1102.90
451.00,1014.17
448.00,945.49
446.00,919.98
448.00,939.88
475.00,990.91
471.00,1048.10
468.00,1097.88
461.00,1121.30
460.00,1123.09
456.00,1100.59
453.00,1065.15
447.00,1033.00
445.00,1008.47
478.00,1009.02
474.00,1021.34
467.00,1042.48
463.00,1069.19
457.00,1088.69
451.00,1091.05
447.00,1081.06
479.00,1070.47
473.00,1051.06
467.00,1043.30
461.00,1043.84
456.00,1050.82
450.00,1059.75
447.00,1061.55
451.00,1058.80
478.00,1059.11
472.00,1051.57
468.00,1052.07
465.00,1057.87
460.00,1063.56
457.00,1069.70
455.00,1069.65
453.00,1063.33
451.00,1054.50
449.00,1042.15
446.00,1031.15
447.00,1025.32
480.00,1031.58
476.00,1039.40
474.00,1056.10
472.00,1073.64
467.00,1088.64
467.00,1096.79
464.00,1093.08
462.00,1083.63
459.00,1069.37
457.00,1054.51
456.00,1045.15
453.00,1039.09
450.00,1036.70
448.00,1038.15
447.00,1038.26
446.00,1036.73
462.00,1039.71
478.00,1044.10
472.00,1049.04
471.00,1060.54
467.00,1071.27
465.00,1080.50
459.00,1082.79
455.00,1076.86
455.00,1066.86
451.00,1052.70
448.00,1038.31
446.00,1028.28
480.00,1033.54
473.00,1038.16
470.00,1052.67
468.00,1069.65
464.00,1082.58
462.00,1088.91
459.00,1084.74
456.00,1073.03
454.00,1058.35
451.00,1042.93
449.00,1031.75
446.00,1025.53
447.00,1023.88
480.00,1036.37
474.00,1046.10
470.00,1059.91
465.00,1074.00
459.00,1082.06
457.00,1081.96
453.00,1073.38
447.00,1057.48
479.00,1051.08
471.00,1042.94
465.00,1044.07
457.00,1051.51
449.00,1059.61
480.00,1073.81
469.00,1075.14
458.00,1072.94
449.00,1066.41
478.00,1067.47
466.00,1060.08
457.00,1055.59
447.00,1052.44
475.00,1059.27
469.00,1059.71
457.00,1060.13
452.00,1060.73
444.00,1056.48
474.00,1059.17
466.00,1053.28
459.00,1050.30
451.00,1049.43
445.00,1047.91
273.00,1145.31
412.00,1083.23
90.00,1012.63
269.00,964.26
0.00,732.98
134.00,567.56
0.00,359.46
6.00,184.78
0.00,71.43
0.00,33.70
0.00,8.20
0.00,19.61
0.00,22.87
0.00,21.56
0.00,33.11
0.00,21.01
0.00,8.17
0.00,7.66
0.00,-8.56
0.00,-11.63
0.00,-3.23
0.00,-8.42
0.00,-0.03
0.00,8.52
0.00,1.53
0.00,6.63
0.00,5.97
0.00,-4.23
0.00,0.40
0.00,-1.86
0.00,-6.97
0.00,1.51
0.00,-0.29
0.00,-1.94
0.00,5.44
0.00,0.41
0.00,-0.85
0.00,3.69
0.00,-2.81
0.00,-1.73
0.00,2.00
0.00,-3.40
0.00,0.24
0.00,2.49
0.00,-2.37
0.00,1.86
0.00,1.63
0.00,-2.61
0.00,1.80
0.00,0.00
0.00,-2.53
0.00,2.06
0.00,-0.62
0.00,-1.46
0.00,2.48
0.00,-1.05
0.00,-0.65
0.00,2.11
0.00,-1.71
0.00,-0.12
0.00,1.52
0.00,-1.93
0.00,0.59
0.00,1.07
0.00,-1.76
0.00,1.17
0.00,0.48
0.00,-1.54
0.00,1.39
0.00,-0.17
0.00,-1.20
0.00,1.47
0.00,-0.64
0.00,-0.69
0.00,1.42
0.00,-0.96
0.00,-0.19
1.00,1.42
0.00,-1.01
0.00,0.52
0.00,1.16
0.00,-0.87
0.00,0.82
0.00,0.52
0.00,-1.11
0.00,0.73
0.00,-0.08
0.00,-0.95
0.00,0.92
0.00,-0.26
0.00,-0.50
0.00,1.02
0.00,-0.49
0.00,-0.23
0.00,0.80
0.00,0.00
0.00,0.00
0.00,0.00
1.00,1.00
0.00,0.00
0.00,0.00
0.00,0.00
0.00,0.00
0.00,0.00
0.00,0.00
0.00,0.00
0.00,0.00
0.00,0.00
0.00,0.00
0.00,0.00
0.00,0.00
0.00,0.00
0.00,0.00
0.00,0.00
0.00,0.00
0.00,0.00
0.00,0.00
0.00,0.00
0.00,0.00
0.00,0.00
0.00,0.00
0.00,0.00
0.00,0.00
0.00,0.00
0.00,0.00
0.00,0.00
0.00,0.00
0.00,0.00
0.00,0.00
0.00,0.00
0.00,0.00
0.00,0.00
46.00,46.00
0.00,0.00
110.00,110.00
0.00,0.00
142.00,142.00
0.00,0.00
148.00,148.00
23.00,23.00
163.00,163.00
41.00,41.00
205.00,205.00
12.00,12.00
200.00,200.00
49.00,49.00
210.00,210.00
49.00,49.00
243.00,243.00
66.00,66.00
267.00,267.00
62.00,62.00
274.00,274.00
76.00,76.00
269.00,269.00
98.00,98.00
308.00,619.46
108.00,591.65
252.00,641.39
76.00,609.76
295.00,652.78
87.00,594.70
287.00,628.50
99.00,582.13
281.00,626.27
136.00,607.50
314.00,671.79
134.00,665.40
286.00,731.08
127.00,714.40
312.00,759.26
123.00,709.61
298.00,734.41
116.00,678.35
319.00,712.20
149.00,675.25
314.00,727.50
131.00,710.12
327.00,695.89
118.00,693.06
363.00,694.36
102.00,671.58
346.00,674.59
119.00,654.54
345.00,654.35
103.00,640.37
303.00,632.68
81.00,610.93
269.00,592.43
59.00,541.47
288.00,528.86
65.00,475.79
242.00,465.05
36.00,435.37
233.00,486.01
28.00,434.67
219.00,469.08
25.00,409.05
226.00,434.74
48.00,388.58
253.00,399.16
64.00,64.00
246.00,246.00
62.00,62.00
263.00,263.00
42.00,42.00
230.00,230.00
39.00,39.00
250.00,250.00
45.00,45.00
225.00,225.00
34.00,34.00
231.00,231.00
10.00,10.00
212.00,212.00
17.00,17.00
233.00,233.00
5.00,5.00
214.00,214.00
0.00,0.00
202.00,202.00
0.00,0.00
163.00,163.00
0.00,0.00
171.00,171.00
0.00,0.00
153.00,153.00
0.00,0.00
164.00,164.00
0.00,0.00
140.00,140.00
0.00,0.00
118.00,118.00
0.00,0.00
88.00,88.00
0.00,0.00
41.00,41.00
0.00,0.00
35.00,35.00
0.00,0.00
13.00,13.00
0.00,0.00
54.00,54.00
0.00,0.00
113.00,76.86
39.00,101.86
160.00,187.30
134.00,257.46
211.00,311.54
231.00,373.21
271.00,450.91
208.00,497.99
332.00,1343.99
281.00,575.80
360.00,1419.95
250.00,616.03
368.00,1436.31
296.00,655.68
390.00,1466.09
267.00,680.16
376.00,1502.29
304.00,711.62
374.00,1510.73
254.00,711.62
360.00,1448.35
290.00,716.88
330.00,1354.53
232.00,686.38
350.00,1291.32
261.00,672.54
321.00,1268.58
212.00,650.91
324.00,1253.35
268.00,650.01
318.00,659.15
215.00,633.82
330.00,1263.81
249.00,634.80
314.00,651.54
288.00,649.87
295.00,656.56
324.00,676.26
298.00,683.78
338.00,707.51
308.00,308.00
321.00,321.00
277.00,277.00
343.00,343.00
297.00,297.00
307.00,307.00
251.00,251.00
317.00,317.00
249.00,249.00
300.00,300.00
234.00,234.00
301.00,301.00
208.00,208.00
349.00,349.00
194.00,194.00
344.00,344.00
180.00,180.00
319.00,319.00
181.00,181.00
325.00,325.00
177.00,177.00
309.00,309.00
170.00,170.00
299.00,299.00
150.00,150.00
282.00,282.00
126.00,126.00
269.00,269.00
103.00,103.00
231.00,231.00
95.00,95.00
230.00,230.00
100.00,100.00
245.00,245.00
82.00,82.00
226.00,226.00
85.00,85.00
229.00,229.00
94.00,94.00
235.00,235.00
139.00,139.00
277.00,277.00
132.00,132.00
269.00,269.00
124.00,124.00
282.00,282.00
128.00,128.00
305.00,305.00
128.00,128.00
302.00,302.00
112.00,112.00
299.00,299.00
111.00,111.00
310.00,310.00
109.00,109.00
309.00,309.00
131.00,131.00
321.00,321.00
125.00,125.00
320.00,320.00
135.00,135.00
326.00,326.00
114.00,114.00
309.00,309.00
90.00,90.00
297.00,297.00
108.00,108.00
305.00,305.00
148.00,148.00
334.00,334.00
159.00,159.00
323.00,645.85
136.00,691.91
336.00,701.64
116.00,696.50
297.00,671.01
107.00,629.81
287.00,594.46
94.00,547.98
251.00,523.81
84.00,498.48
266.00,498.62
68.00,481.83
246.00,485.57
36.00,462.87
258.00,468.35
54.00,431.96
234.00,431.37
46.00,401.50
236.00,411.05
41.00,389.71
208.00,395.94
13.00,369.03
221.00,379.54
27.00,339.48
201.00,345.60
14.00,312.26
189.00,322.54
28.00,300.12
183.00,311.22
2.00,285.49
194.00,306.14
4.00,274.73
222.00,304.22
0.00,276.70
215.00,311.33
59.00,312.28
265.00,359.06
101.00,390.64
335.00,461.89
176.00,458.49
443.00,1350.83
200.00,545.87
464.00,1681.10
259.00,651.27
448.00,1770.87
283.00,716.69
461.00,1700.47
304.00,752.19
454.00,1651.81
259.00,758.14
474.00,1661.76
188.00,744.06
466.00,1586.36
170.00,721.92
430.00,1420.56
148.00,780.04
430.00,1292.52
147.00,799.19
433.00,1287.21
138.00,823.93
417.00,1342.81
136.00,854.65
420.00,1350.00
124.00,861.01
383.00,1260.71
133.00,845.44
363.00,1147.16
131.00,813.51
356.00,1096.51
121.00,784.20
364.00,1115.23
91.00,766.94
325.00,734.02
93.00,688.62
322.00,665.87
80.00,613.28
272.00,588.74
88.00,549.34
254.00,526.83
89.00,499.84
242.00,488.61
91.00,476.08
243.00,476.25
53.00,461.56
208.00,454.99
80.00,437.26
198.00,417.48
43.00,383.59
177.00,406.03
29.00,355.18
194.00,346.58
0.00,301.53
159.00,327.97
5.00,282.40
140.00,299.41
34.00,259.55
104.00,263.63
65.00,249.77
97.00,254.96
21.00,240.20
102.00,255.35
22.00,225.98
76.00,223.23
0.00,183.61
117.00,185.55
23.00,154.62
91.00,171.59
4.00,161.61
97.00,194.57
42.00,191.07
87.00,209.04
0.00,193.27
83.00,202.28
14.00,170.81
78.00,167.74
34.00,143.86
108.00,161.58
10.00,154.67
82.00,187.72
47.00,196.65
88.00,217.49
9.00,201.99
80.00,210.41
25.00,181.58
85.00,177.07
4.00,146.84
96.00,159.97
30.00,147.82
98.00,176.94
64.00,191.53
68.00,218.30
97.00,249.17
51.00,254.47
104.00,273.27
74.00,267.81
120.00,278.38
84.00,278.06
89.00,290.75
117.00,309.68
138.00,333.84
83.00,343.94
110.00,366.34
84.00,365.72
139.00,371.78
78.00,347.61
158.00,358.96
63.00,337.03
178.00,369.97
81.00,364.70
201.00,370.91
90.00,390.36
209.00,404.38
72.00,418.63
236.00,435.33
77.00,431.90
220.00,433.21
88.00,429.76
227.00,429.43
121.00,438.06
195.00,432.10
93.00,447.81
222.00,449.22
94.00,450.63
217.00,444.02
79.00,436.48
233.00,437.61
92.00,430.81
203.00,426.94
109.00,437.68
233.00,440.59
117.00,457.99
221.00,460.32
106.00,480.16
250.00,487.07
93.00,489.09
233.00,485.72
110.00,485.47
239.00,477.64
128.00,484.06
257.00,487.56
133.00,511.24
298.00,533.67
142.00,570.86
325.00,598.33
155.00,639.32
317.00,651.47
151.00,677.83
346.00,681.77
165.00,690.25
329.00,681.86
151.00,690.47
339.00,685.97
163.00,694.30
328.00,686.24
144.00,692.39
328.00,684.56
141.00,681.98
330.00,671.81
122.00,659.56
335.00,656.30
126.00,644.71
348.00,650.60
139.00,652.53
316.00,653.15
136.00,665.13
324.00,662.69
141.00,662.56
319.00,654.07
109.00,640.78
332.00,639.78
114.00,622.43
349.00,630.78
122.00,625.69
351.00,351.00
140.00,140.00
335.00,335.00
157.00,157.00
324.00,324.00
153.00,153.00
325.00,325.00
140.00,140.00
326.00,326.00
143.00,143.00
375.00,375.00
170.00,170.00
438.00,438.00
264.00,264.00
445.00,445.00
368.00,368.00
447.00,447.00
443.00,443.00
472.00,472.00
463.00,463.00
460.00,460.00
454.00,454.00
457.00,457.00
451.00,451.00
445.00,445.00
376.00,376.00
447.00,447.00
270.00,270.00
448.00,448.00
147.00,147.00
379.00,379.00
126.00,126.00
310.00,310.00
66.00,66.00
268.00,268.00
12.00,12.00
221.00,221.00
0.00,0.00
190.00,190.00
0.00,0.00
192.00,192.00
0.00,0.00
194.00,194.00
6.00,6.00
207.00,207.00
1.00,1.00
230.00,230.00
23.00,23.00
241.00,241.00
16.00,16.00
250.00,250.00
52.00,52.00
302.00,302.00
66.00,66.00
333.00,333.00
62.00,62.00
337.00,337.00
67.00,67.00
320.00,320.00
57.00,57.00
312.00,312.00
60.00,60.00
276.00,276.00
38.00,38.00
287.00,287.00
50.00,50.00
282.00,282.00
58.00,58.00
264.00,264.00
43.00,43.00
229.00,229.00
59.00,59.00
218.00,218.00
34.00,34.00
225.00,225.00
30.00,30.00
211.00,211.00
0.00,0.00
210.00,210.00
5.00,5.00
191.00,191.00
3.00,3.00
194.00,194.00
0.00,0.00
160.00,160.00
0.00,0.00
106.00,106.00
0.00,0.00
66.00,66.00
0.00,0.00
33.00,33.00
0.00,0.00
12.00,12.00
0.00,0.00
0.00,0.00
0.00,0.00
0.00,0.00
0.00,0.00
0.00,0.00
0.00,0.00
0.00,0.00
0.00,0.00
37.00,37.00
0.00,0.00
65.00,65.00
0.00,42.68
70.00,89.35
0.00,99.62
49.00,122.59
0.00,112.30
16.00,87.86
0.00,57.15
22.00,42.28
0.00,21.69
16.00,14.73
0.00,10.51
34.00,18.58
0.00,15.72
0.00,21.71
0.00,20.63
0.00,16.36
0.00,10.61
0.00,1.23
0.00,-4.27
0.00,-6.06
0.00,-7.10
0.00,-3.31
0.00,0.78
0.00,2.34
0.00,4.89
0.00,4.41
0.00,1.65
0.00,0.81
0.00,-1.46
0.00,-3.00
0.00,-1.63
68.00,15.59
110.00,58.04
88.00,117.05
192.00,231.23
104.00,319.10
195.00,441.55
139.00,507.53
279.00,526.07
161.00,564.21
262.00,560.27
145.00,585.80
248.00,572.83
112.00,570.88
202.00,534.14
116.00,513.96
230.00,478.80
147.00,467.21
229.00,456.32
180.00,499.92
300.00,528.61
231.00,534.50
345.00,603.06
253.00,625.98
327.00,681.27
211.00,788.35
329.00,772.80
215.00,697.26
395.00,707.41
385.00,688.42
478.00,1549.92
384.00,771.84
379.00,869.21
223.00,883.63
369.00,926.11
223.00,839.24
364.00,778.46
241.00,665.21
360.00,632.13
222.00,571.13
350.00,622.30
198.00,726.31
346.00,753.51
204.00,834.19
350.00,814.87
227.00,727.90
349.00,725.15
204.00,737.96
343.00,714.15
346.00,732.52
168.00,752.06
362.00,758.35
128.00,745.14
352.00,734.78
139.00,719.16
389.00,706.45
195.00,710.42
428.00,1295.18
211.00,812.24
435.00,1568.28
224.00,791.73
437.00,1665.08
246.00,795.72
466.00,1614.28
274.00,794.63
443.00,1592.57
269.00,777.64
463.00,1646.91
345.00,817.44
461.00,1774.09
333.00,849.11
452.00,1869.60
294.00,851.71
478.00,1796.82
277.00,848.96
459.00,879.06
239.00,800.65
450.00,843.15
244.00,771.50
476.00,1554.61
219.00,872.90
469.00,907.42
220.00,943.19
444.00,943.67
179.00,955.01
398.00,915.52
158.00,881.56
350.00,826.52
125.00,755.33
355.00,720.65
148.00,676.21
362.00,665.54
158.00,682.08
389.00,709.03
207.00,207.00
444.00,444.00
249.00,249.00
437.00,437.00
158.00,158.00
332.00,332.00
132.00,132.00
321.00,321.00
83.00,83.00
273.00,273.00
16.00,16.00
237.00,237.00
0.00,0.00
233.00,233.00
10.00,10.00
241.00,241.00
0.00,0.00
285.00,285.00
45.00,45.00
291.00,291.00
33.00,33.00
308.00,308.00
60.00,60.00
302.00,302.00
39.00,39.00
333.00,333.00
75.00,75.00
333.00,333.00
62.00,62.00
326.00,326.00
85.00,85.00
315.00,315.00
70.00,70.00
317.00,317.00
87.00,87.00
338.00,338.00
69.00,69.00
309.00,309.00
86.00,86.00
318.00,318.00
75.00,75.00
333.00,333.00
83.00,83.00
350.00,350.00
48.00,48.00
273.00,273.00
27.00,27.00
273.00,273.00
26.00,26.00
247.00,247.00
13.00,13.00
245.00,245.00
0.00,0.00
241.00,241.00
22.00,22.00
272.00,272.00
23.00,23.00
253.00,253.00
34.00,34.00
240.00,240.00
34.00,34.00
216.00,216.00
55.00,55.00
220.00,220.00
22.00,22.00
217.00,217.00
41.00,41.00
190.00,190.00
18.00,18.00
209.00,209.00
33.00,33.00
206.00,206.00
19.00,19.00
211.00,211.00
36.00,36.00
188.00,188.00
6.00,6.00
200.00,200.00
35.00,35.00
189.00,189.00
57.00,57.00
182.00,182.00
0.00,0.00
143.00,143.00
0.00,0.00
125.00,125.00
0.00,0.00
113.00,113.00
0.00,0.00
148.00,148.00
0.00,0.00
149.00,149.00
28.00,28.00
175.00,175.00
80.00,80.00
160.00,160.00
128.00,128.00
166.00,166.00
100.00,100.00
195.00,195.00
160.00,160.00
175.00,175.00
88.00,88.00
196.00,196.00
137.00,137.00
186.00,186.00
119.00,119.00
224.00,224.00
164.00,164.00
205.00,205.00
194.00,194.00
188.00,188.00
230.00,230.00
178.00,178.00
271.00,271.00
197.00,197.00
231.00,231.00
146.00,146.00
231.00,231.00
174.00,174.00
223.00,223.00
162.00,162.00
471.00,471.00
230.00,230.00
181.00,181.00
147.00,147.00
223.00,223.00
188.00,188.00
205.00,205.00
167.00,167.00
194.00,194.00
110.00,110.00
160.00,160.00
142.00,142.00
192.00,192.00
86.00,86.00
123.00,123.00
117.00,117.00
131.00,131.00
91.00,91.00
115.00,115.00
134.00,134.00
159.00,159.00
129.00,129.00
220.00,220.00
134.00,134.00
276.00,276.00
310.00,310.00
479.00,479.00
470.00,470.00
466.00,466.00
387.00,387.00
234.00,234.00
0.00,0.00
0.00,0.00
0.00,0.00
68.00,68.00
29.00,29.00
438.00,438.00
475.00,475.00
462.00,462.00
352.00,352.00
416.00,416.00
230.00,230.00
306.00,306.00
0.00,0.00
83.00,83.00
220.00,220.00
467.00,467.00
294.00,294.00
409.00,409.00
229.00,229.00
384.00,384.00
154.00,154.00
349.00,349.00
155.00,155.00
346.00,346.00
139.00,139.00
324.00,324.00
140.00,140.00
317.00,317.00
114.00,114.00
322.00,322.00
118.00,118.00
320.00,320.00
102.00,102.00
311.00,311.00
97.00,97.00
292.00,292.00
82.00,82.00
297.00,297.00
101.00,101.00
311.00,311.00
80.00,80.00
295.00,295.00
59.00,59.00
282.00,282.00
53.00,53.00
267.00,267.00
58.00,58.00
288.00,288.00
71.00,71.00
271.00,271.00
61.00,61.00
304.00,304.00
76.00,76.00
276.00,276.00
64.00,64.00
297.00,297.00
129.00,129.00
318.00,318.00
116.00,116.00
312.00,312.00
113.00,113.00
334.00,334.00
95.00,95.00
323.00,323.00
125.00,125.00
349.00,349.00
107.00,107.00
338.00,338.00
120.00,120.00
345.00,345.00
91.00,91.00
329.00,329.00
89.00,89.00
320.00,619.75
71.00,582.41
328.00,580.37
86.00,546.10
328.00,568.82
72.00,550.19
304.00,572.61
61.00,562.60
336.00,578.38
103.00,560.80
337.00,581.26
88.00,569.41
333.00,600.31
95.00,601.02
324.00,613.35
66.00,598.31
329.00,607.29
87.00,570.40
334.00,584.20
58.00,548.92
306.00,562.76
35.00,533.76
295.00,541.43
22.00,488.84
250.00,487.46
28.00,425.15
257.00,427.97
9.00,374.42
250.00,391.04
41.00,368.19
254.00,399.24
27.00,386.53
235.00,417.57
18.00,397.75
231.00,409.25
0.00,363.45
221.00,368.97
0.00,310.83
205.00,323.98
0.00,279.59
209.00,304.05
16.00,284.35
226.00,319.22
0.00,305.30
229.00,347.40
34.00,334.98
251.00,371.67
32.00,360.67
248.00,392.95
71.00,396.56
277.00,431.80
67.00,437.04
302.00,482.17
89.00,495.42
354.00,544.78
100.00,563.00
377.00,1139.98
112.00,638.99
349.00,664.29
76.00,664.87
317.00,663.06
70.00,611.54
241.00,575.99
33.00,494.31
233.00,459.15
56.00,392.44
194.00,370.76
0.00,330.14
175.00,372.42
0.00,321.09
153.00,339.68
16.00,288.19
137.00,286.86
34.00,249.95
135.00,266.30
70.00,255.73
133.00,293.96
34.00,294.55
121.00,325.34
77.00,321.95
134.00,329.17
47.00,47.00
120.00,120.00
86.00,86.00
136.00,136.00
54.00,54.00
174.00,174.00
117.00,117.00
145.00,145.00
101.00,101.00
66.00,66.00
79.00,79.00
40.00,40.00
38.00,38.00
28.00,28.00
0.00,0.00
0.00,0.00
0.00,0.00
0.00,0.00
0.00,0.00
0.00,0.00
0.00,0.00
0.00,0.00
0.00,0.00
0.00,0.00
0.00,0.00
28.00,28.00
29.00,29.00
40.00,40.00
132.00,132.00
111.00,111.00
191.00,191.00
125.00,125.00
258.00,258.00
165.00,165.00
223.00,223.00
166.00,166.00
278.00,278.00
216.00,216.00
222.00,222.00
186.00,186.00
237.00,237.00
152.00,152.00
249.00,249.00
127.00,127.00
280.00,280.00
136.00,136.00
268.00,268.00
141.00,141.00
285.00,285.00
139.00,139.00
265.00,265.00
159.00,159.00
304.00,304.00
182.00,182.00
288.00,288.00
202.00,202.00
330.00,330.00
191.00,191.00
348.00,348.00
174.00,174.00
391.00,391.00
173.00,173.00
415.00,415.00
190.00,190.00
391.00,391.00
163.00,163.00
406.00,406.00
168.00,168.00
369.00,369.00
158.00,158.00
390.00,390.00
182.00,182.00
362.00,362.00
168.00,168.00
384.00,384.00
200.00,772.40
375.00,1327.24
188.00,722.00
375.00,1335.35
171.00,782.82
352.00,768.62
201.00,682.63
372.00,1217.04
179.00,650.02
379.00,1268.11
200.00,640.09
433.00,1393.70
200.00,648.90
397.00,1480.95
206.00,670.98
389.00,1439.21
189.00,656.48
376.00,1303.59
163.00,715.62
416.00,1231.94
147.00,752.70
388.00,1248.99
168.00,789.42
383.00,1299.49
163.00,827.91
395.00,1317.04
169.00,853.60
385.00,1297.08
159.00,855.13
372.00,1254.22
142.00,849.57
402.00,1222.83
144.00,840.18
397.00,1241.03
168.00,848.63
396.00,1311.92
156.00,873.38
366.00,1314.30
131.00,865.98
376.00,1204.85
149.00,835.89
351.00,787.74
119.00,738.57
334.00,711.99
146.00,695.45
330.00,679.12
150.00,677.60
308.00,669.93
131.00,669.44
291.00,652.54
85.00,627.94
310.00,611.57
105.00,570.92
269.00,553.91
63.00,519.46
241.00,511.11
51.00,476.30
234.00,463.68
32.00,417.29
210.00,408.17
73.00,375.20
223.00,380.36
39.00,364.89
216.00,384.50
59.00,386.01
247.00,408.61
32.00,394.24
267.00,427.18
10.00,396.65
236.00,416.33
1.00,375.11
212.00,378.56
0.00,323.19
217.00,333.59
0.00,281.91
237.00,315.20
0.00,289.35
235.00,333.28
0.00,322.82
226.00,360.32
0.00,334.41
247.00,366.94
2.00,325.28
252.00,357.27
0.00,324.27
249.00,361.62
4.00,337.06
227.00,369.27
0.00,339.48
226.00,362.94
8.00,324.33
222.00,342.42
0.00,304.65
215.00,329.31
19.00,302.65
235.00,336.78
19.00,320.98
215.00,351.66
9.00,338.05
244.00,370.08
14.00,339.48
247.00,370.76
19.00,343.39
254.00,378.19
16.00,358.73
259.00,395.76
52.00,386.75
279.00,425.32
48.00,420.70
288.00,462.04
65.00,463.31
324.00,504.99
61.00,500.57
322.00,539.11
64.00,530.39
331.00,562.52
53.00,539.77
337.00,567.29
83.00,546.46
347.00,574.21
100.00,569.94
314.00,592.43
134.00,610.16
297.00,614.76
83.00,610.34
324.00,615.57
110.00,588.57
280.00,576.12
70.00,547.18
290.00,547.38
128.00,533.25
278.00,532.40
84.00,532.75
290.00,549.21
102.00,549.24
289.00,556.87
126.00,559.00
288.00,561.50
164.00,582.13
257.00,573.79
211.00,547.00
251.00,554.83
162.00,609.59
246.00,592.16
201.00,553.09
236.00,538.53
151.00,560.36
233.00,539.13
188.00,499.50
272.00,506.41
151.00,547.43
255.00,551.88
185.00,525.45
274.00,546.48
151.00,588.35
288.00,590.07
223.00,558.53
327.00,582.25
204.00,561.90
410.00,1340.34
266.00,620.08
454.00,1625.11
207.00,670.25
138.00,802.00
0.00,771.76
63.00,637.75
0.00,389.15
0.00,134.95
0.00,-68.37
0.00,-170.94
0.00,-174.84
0.00,-113.08
0.00,-4.55
0.00,84.51
0.00,130.13
0.00,125.94
0.00,79.86
0.00,16.69
0.00,-36.99
0.00,-69.03
0.00,-54.11
0.00,-34.28
0.00,-17.60
0.00,16.88
87.00,63.78
0.00,68.06
0.00,84.63
0.00,81.00
0.00,55.17
0.00,34.85
0.00,14.28
0.00,0.53
40.00,7.07
0.00,1.39
0.00,23.95
0.00,44.65
0.00,36.97
0.00,29.06
0.00,19.27
0.00,6.22
467.00,387.72
462.00,909.56
454.00,1704.80
449.00,2438.20
479.00,2894.41
471.00,2953.00
461.00,2692.91
453.00,2256.97
448.00,1819.76
478.00,1555.03
471.00,1498.73
463.00,1647.05
460.00,1900.94
452.00,2138.25
446.00,2275.06
477.00,2309.74
470.00,2230.52
463.00,2109.09
455.00,1984.22
448.00,1889.18
447.00,1844.87
474.00,1876.45
464.00,1939.32
458.00,2025.26
450.00,2085.80
447.00,2099.78
476.00,2093.92
465.00,2052.78
0.00,417.42
0.00,547.51
0.00,428.62
0.00,188.57
0.00,-97.36
0.00,-299.65
0.00,-348.09
0.00,-290.29
0.00,-140.47
0.00,34.89
0.00,143.00
0.00,190.87
0.00,166.53
0.00,74.22
0.00,-10.48
0.00,-76.66
0.00,-114.42
0.00,-73.56
0.00,-43.49
128.00,40.73
446.00,211.23
475.00,367.48
469.00,576.75
462.00,822.20
455.00,1020.01
450.00,1147.06
446.00,1190.59
477.00,1151.30
469.00,1073.34
461.00,1000.89
454.00,945.95
449.00,943.32
481.00,984.63
473.00,1027.79
462.00,1083.33
452.00,1116.36
0.00,1143.78
0.00,1061.21
0.00,767.44
0.00,372.75
0.00,-0.83
0.00,-259.46
0.00,-339.67
0.00,-266.69
477.00,17.72
472.00,276.26
465.00,577.34
459.00,864.24
453.00,1085.03
449.00,1192.19
446.00,1189.54
476.00,1125.28
469.00,1022.69
463.00,943.42
458.00,915.86
452.00,931.88
447.00,983.45
478.00,1054.90
469.00,1100.58
377.00,1098.61
0.00,1112.45
0.00,984.99
0.00,666.54
0.00,286.72
0.00,-64.95
0.00,-279.61
429.00,-131.94
478.00,69.56
471.00,391.65
467.00,767.68
460.00,1078.83
455.00,1273.72
447.00,1316.76
480.00,1237.56
471.00,1098.96
464.00,964.29
456.00,878.23
449.00,874.19
448.00,923.99
0.00,1033.64
99.00,1107.14
0.00,927.03
0.00,623.75
0.00,255.18
22.00,-63.57
99.00,-216.48
445.00,-61.76
475.00,157.93
471.00,487.87
464.00,840.63
459.00,1121.63
452.00,1281.72
445.00,1293.14
477.00,1202.79
468.00,1065.60
455.00,938.07
447.00,869.71
467.00,884.04
0.00,948.47
307.00,956.87
0.00,880.51
190.00,777.24
0.00,493.26
140.00,309.47
468.00,291.44
457.00,329.51
449.00,512.97
477.00,776.14
464.00,1024.83
454.00,1210.50
472.00,1283.47
467.00,1247.63
457.00,1150.99
449.00,1027.54
243.00,964.65
0.00,850.55
0.00,704.61
0.00,486.04
0.00,245.29
0.00,24.75
0.00,-108.70
357.00,-0.58
446.00,148.52
472.00,402.22
461.00,700.48
451.00,976.81
445.00,1173.89
471.00,1252.78
463.00,1216.01
454.00,1118.83
396.00,984.02
0.00,847.11
0.00,714.30
0.00,480.20
0.00,239.45
0.00,23.33
0.00,-121.30
0.00,-161.07
0.00,-113.33
0.00,-33.67
0.00,58.19
205.00,179.87
228.00,273.37
334.00,368.13
268.00,543.41
328.00,635.33
280.00,839.99
202.00,952.23
160.00,955.53
0.00,819.47
0.00,600.22
0.00,318.66
0.00,61.33
0.00,-124.55
0.00,-198.06
0.00,-138.33
0.00,-80.29
0.00,32.47
0.00,118.40
0.00,142.02
0.00,105.09
0.00,65.81
0.00,-6.93
0.00,-55.28
0.00,-50.34
0.00,-44.32
0.00,-21.20
0.00,-3.64
0.00,5.23
0.00,16.97
0.00,13.14
0.00,3.99
0.00,1.49
0.00,-8.48
0.00,-11.91
0.00,-6.14
0.00,-6.66
0.00,-0.98
0.00,6.06
0.00,3.24
0.00,5.07
0.00,4.72
0.00,-2.09
0.00,-1.05
0.00,-1.89
0.00,-5.03
0.00,-0.25
0.00,0.14
0.00,-0.82
0.00,3.45
0.00,1.30
0.00,-0.31
0.00,2.04
0.00,-1.42
0.00,-1.65
0.00,0.77
0.00,-1.87
0.00,-0.27
99.00,26.60
460.00,171.32
453.00,311.86
0.00,522.93
0.00,757.89
0.00,804.16
0.00,649.19
0.00,354.68
0.00,36.41
0.00,-202.18
0.00,-309.08
0.00,-275.00
0.00,-165.96
0.00,-3.49
0.00,127.13
0.00,186.02
0.00,138.56
0.00,87.03
46.00,13.99
470.00,106.71
461.00,221.02
450.00,439.86
0.00,781.58
0.00,1056.67
0.00,1045.23
0.00,778.54
0.00,355.93
0.00,-62.31
0.00,-338.13
0.00,-429.47
0.00,-341.04
0.00,-139.64
0.00,67.13
0.00,215.85
0.00,265.91
0.00,185.21
0.00,108.11
0.00,-15.30
0.00,-110.71
0.00,-140.97
0.00,-101.63
0.00,-64.27
0.00,8.98
0.00,60.47
0.00,52.46
0.00,45.58
0.00,24.11
0.00,2.90
0.00,-5.71
0.00,-16.07
446.00,128.73
470.00,266.14
462.00,480.16
448.00,744.45
476.00,999.28
461.00,1163.33
450.00,1229.75
455.00,1201.54
0.00,1093.00
0.00,880.81
0.00,525.19
0.00,146.79
0.00,-152.08
0.00,-303.67
0.00,-291.27
0.00,-183.34
0.00,-12.09
0.00,135.27
0.00,205.00
176.00,248.86
445.00,315.53
465.00,393.98
474.00,559.55
463.00,777.85
450.00,987.58
478.00,1152.69
0.00,1290.72
0.00,1204.32
0.00,843.64
0.00,356.71
0.00,-108.74
0.00,-401.43
0.00,-466.89
0.00,-331.97
0.00,-108.99
0.00,120.58
88.00,290.85
454.00,424.29
444.00,494.34
473.00,615.23
462.00,775.20
451.00,937.68
476.00,1072.93
278.00,1296.54
0.00,1259.92
0.00,1034.91
0.00,646.00
0.00,191.04
0.00,-175.84
0.00,-357.47
0.00,-365.68
0.00,-234.77
464.00,80.11
457.00,323.83
446.00,604.56
471.00,875.16
459.00,1057.99
448.00,1159.72
477.00,1175.42
464.00,1110.24
452.00,1035.28
445.00,965.41
0.00,902.45
0.00,840.07
0.00,640.88
0.00,365.86
0.00,91.97
0.00,-121.12
0.00,-212.99
0.00,-191.97
477.00,42.15
465.00,261.16
455.00,543.64
445.00,829.24
473.00,1073.52
457.00,1200.73
445.00,1215.93
471.00,1162.44
460.00,1056.61
448.00,960.28
0.00,876.01
0.00,793.02
0.00,603.45
0.00,350.90
0.00,87.77
0.00,-104.08
0.00,-187.56
1.00,-177.05
452.00,48.57
479.00,263.64
466.00,531.58
455.00,824.42
450.00,1062.15
469.00,1200.81
457.00,1229.85
448.00,1165.75
475.00,1067.39
462.00,974.80
450.00,916.61
0.00,898.77
0.00,881.75
0.00,713.87
0.00,465.44
0.00,161.79
0.00,-88.88
0.00,-215.94
0.00,-223.15
0.00,-147.92
0.00,-13.87
453.00,204.76
477.00,371.51
468.00,585.66
454.00,807.74
447.00,1002.65
469.00,1138.41
454.00,1172.86
445.00,1141.00
0.00,1059.18
0.00,873.95
0.00,567.37
0.00,203.56
0.00,-108.17
0.00,-273.39
0.00,-282.67
385.00,-59.93
473.00,198.46
462.00,500.86
453.00,807.26
474.00,1069.61
471.00,1215.90
461.00,1241.34
451.00,1181.58
470.00,1077.97
470.00,976.56
461.00,922.03
290.00,994.42
0.00,991.98
0.00,926.46
0.00,708.96
0.00,393.64
0.00,77.41
0.00,-156.22
0.00,-258.76
0.00,-229.93
0.00,-137.18
446.00,117.61
474.00,331.15
461.00,577.03
451.00,827.02
478.00,1040.57
469.00,1162.38
458.00,1193.10
0.00,1168.00
0.00,986.59
0.00,634.51
0.00,207.77
0.00,-154.64
0.00,-350.97
0.00,-357.09
0.00,-236.99
0.00,-39.87
288.00,232.31
451.00,401.25
479.00,578.46
467.00,766.82
457.00,935.29
447.00,1068.42
474.00,1142.53
462.00,1138.07
0.00,1105.56
0.00,952.99
0.00,619.47
0.00,242.52
0.00,-98.05
0.00,-298.88
0.00,-321.79
0.00,-223.41
0.00,-55.28
0.00,111.80
450.00,297.22
478.00,429.19
465.00,600.17
455.00,785.61
448.00,971.65
471.00,1109.31
460.00,1157.32
379.00,1128.52
0.00,1068.57
0.00,871.37
0.00,535.15
0.00,156.19
0.00,-156.45
0.00,-309.55
0.00,-307.82
0.00,-201.95
470.00,92.63
456.00,323.65
449.00,591.86
474.00,866.32
465.00,1063.36
454.00,1170.96
446.00,1187.55
267.00,1217.37
0.00,1036.23
0.00,756.76
0.00,393.02
0.00,46.86
0.00,-191.64
0.00,-280.82
0.00,-232.61
0.00,-98.33
0.00,52.33
476.00,269.20
464.00,413.41
454.00,601.40
447.00,806.14
474.00,996.50
461.00,1117.01
451.00,1161.87
478.00,1151.65
467.00,1092.76
0.00,1006.82
0.00,869.37
0.00,579.36
0.00,258.47
0.00,-33.02
0.00,-216.95
0.00,-259.72
0.00,-180.82
0.00,-53.06
452.00,185.94
445.00,360.59
469.00,588.56
458.00,819.09
449.00,1008.45
480.00,1140.26
468.00,1179.22
458.00,1147.31
0.00,1074.02
0.00,901.72
0.00,582.91
0.00,217.12
0.00,-99.08
0.00,-278.33
0.00,-293.36
79.00,-177.98
455.00,93.29
447.00,343.01
476.00,627.66
465.00,894.36
452.00,1092.94
445.00,1184.33
472.00,1193.02
462.00,1123.97
452.00,1026.33
447.00,953.72
0.00,890.41
0.00,820.71
0.00,634.74
0.00,366.68
0.00,88.85
0.00,-114.56
0.00,-209.92
0.00,-196.97
0.00,-115.16
0.00,5.66
479.00,220.88
467.00,376.89
455.00,579.70
446.00,802.59
472.00,1008.93
464.00,1134.89
455.00,1179.30
341.00,1288.65
0.00,1139.26
0.00,884.40
0.00,519.66
0.00,129.99
0.00,-161.53
0.00,-293.65
0.00,-281.30
0.00,-169.42
0.00,5.51
480.00,242.36
468.00,412.53
456.00,617.25
448.00,822.66
473.00,1014.33
459.00,1125.74
401.00,1140.24
0.00,1133.95
0.00,955.18
0.00,606.90
0.00,194.89
0.00,-160.70
0.00,-351.18
0.00,-348.97
0.00,-235.32
447.00,63.06
474.00,327.07
461.00,599.16
450.00,868.52
477.00,1081.57
466.00,1177.91
455.00,1191.72
445.00,1130.40
474.00,1041.97
463.00,970.56
68.00,925.01
0.00,857.14
0.00,694.13
0.00,448.63
0.00,158.01
0.00,-66.74
0.00,-192.48
1.00,-203.32
446.00,22.71
474.00,237.95
463.00,520.74
451.00,824.90
479.00,1075.12
466.00,1218.48
456.00,1250.38
446.00,1180.32
470.00,1079.37
0.00,926.67
0.00,755.77
0.00,500.76
0.00,217.56
0.00,-29.69
0.00,-169.78
0.00,-197.13
0.00,-137.81
0.00,-25.42
475.00,198.23
468.00,361.98
459.00,585.49
447.00,816.99
473.00,1022.38
461.00,1151.53
452.00,1185.92
445.00,1147.81
472.00,1081.21
0.00,963.04
0.00,815.77
0.00,545.49
0.00,239.10
0.00,-29.00
0.00,-193.60
0.00,-233.44
0.00,-158.58
474.00,91.39
463.00,302.52
453.00,569.93
446.00,841.51
470.00,1063.38
460.00,1183.93
451.00,1202.71
240.00,1231.38
0.00,1043.71
0.00,742.75
0.00,368.08
0.00,13.83
0.00,-222.05
0.00,-295.31
0.00,-213.29
0.00,-75.31
0.00,79.24
0.00,180.21
456.00,325.48
445.00,405.04
469.00,551.19
461.00,743.70
450.00,938.85
476.00,1096.44
466.00,1179.47
0.00,1226.07
0.00,1087.79
0.00,718.54
0.00,268.70
0.00,-138.43
0.00,-376.75
0.00,-411.83
0.00,-283.11
461.00,35.39
451.00,306.69
451.00,603.44
470.00,889.88
460.00,1090.58
450.00,1183.17
478.00,1193.56
466.00,1123.00
457.00,1030.33
446.00,959.66
0.00,898.80
0.00,831.76
0.00,642.40
0.00,368.42
0.00,88.18
0.00,-119.39
0.00,-216.10
0.00,-200.01
0.00,-118.66
472.00,128.40
462.00,324.82
453.00,572.43
446.00,824.10
472.00,1038.10
461.00,1160.56
0.00,1241.45
0.00,1113.43
0.00,731.29
0.00,261.61
0.00,-161.03
0.00,-410.08
0.00,-441.59
0.00,-300.29
0.00,-78.75
477.00,222.13
468.00,431.18
456.00,661.57
447.00,875.22
474.00,1041.25
464.00,1131.99
452.00,1144.68
460.00,1105.37
467.00,1048.79
0.00,966.40
0.00,848.34
0.00,578.46
0.00,278.84
0.00,-3.76
0.00,-188.06
0.00,-246.76
0.00,-176.80
463.00,70.94
451.00,284.19
479.00,565.20
465.00,847.87
454.00,1071.68
446.00,1196.82
468.00,1223.74
454.00,1155.15
446.00,1051.70
0.00,916.85
0.00,760.02
1.00,503.48
0.00,224.04
0.00,-23.30
0.00,-170.60
0.00,-201.43
0.00,-140.90
0.00,-32.22
445.00,185.02
469.00,353.30
456.00,570.63
446.00,802.64
471.00,1007.93
457.00,1138.37
448.00,1178.54
478.00,1154.54
0.00,1071.21
0.00,892.55
0.00,576.50
0.00,212.06
0.00,-102.25
0.00,-276.31
0.00,-288.94
0.00,-195.64
456.00,79.50
446.00,310.66
470.00,582.53
460.00,850.78
449.00,1058.35
474.00,1174.98
462.00,1195.50
448.00,1138.09
477.00,1055.89
0.00,943.69
0.00,806.65
0.00,537.44
0.00,256.16
0.00,-8.82
0.00,-177.71
0.00,-219.47
0.00,-159.65
0.00,-50.18
481.00,189.56
467.00,360.61
458.00,591.68
446.00,832.16
471.00,1032.60
457.00,1155.36
449.00,1185.76
474.00,1147.13
0.00,1054.91
0.00,874.01
0.00,560.22
0.00,206.77
0.00,-98.50
0.00,-268.03
0.00,-276.69
0.00,-187.95
464.00,85.00
450.00,315.39
476.00,586.39
461.00,854.96
451.00,1066.75
476.00,1183.22
462.00,1203.64
451.00,1146.81
478.00,1060.25
0.00,946.05
0.00,807.37
0.00,535.19
0.00,254.73
0.00,-9.67
0.00,-178.88
0.00,-218.28
0.00,-158.89
0.00,-49.97
459.00,183.72
446.00,348.00
470.00,579.41
457.00,817.49
448.00,1009.48
473.00,1146.70
0.00,1238.68
0.00,1119.35
0.00,746.51
0.00,283.34
0.00,-147.00
0.00,-399.18
0.00,-442.46
0.00,-309.09
0.00,-86.46
0.00,125.90
42.00,265.98
478.00,407.36
464.00,471.03
453.00,591.56
444.00,765.52
471.00,945.35
458.00,1080.22
450.00,1157.60
0.00,1197.36
0.00,1064.30
0.00,705.08
0.00,263.38
0.00,-130.93
0.00,-364.47
0.00,-402.49
0.00,-272.71
0.00,-71.24
0.00,122.31
0.00,238.78
457.00,369.41
450.00,426.69
466.00,552.92
456.00,729.37
447.00,917.46
202.00,1218.03
0.00,1276.99
0.00,1090.87
0.00,714.92
0.00,226.01
0.00,-183.41
0.00,-400.99
0.00,-418.97
0.00,-273.71
0.00,-45.51
0.00,150.75
466.00,354.91
450.00,468.59
479.00,621.47
466.00,796.29
453.00,964.25
479.00,1093.22
465.00,1156.93
11.00,1195.23
0.00,1063.41
0.00,708.12
0.00,283.14
0.00,-109.93
0.00,-345.49
0.00,-389.67
0.00,-272.15
0.00,-77.50
0.00,113.08
478.00,324.41
463.00,457.87
452.00,623.90
479.00,813.38
465.00,988.02
453.00,1105.48
480.00,1163.19
71.00,1206.56
0.00,1069.08
0.00,713.47
0.00,314.55
0.00,-70.36
0.00,-312.95
0.00,-366.24
0.00,-263.96
0.00,-87.05
252.00,181.32
458.00,370.25
447.00,552.85
472.00,759.57
461.00,928.76
449.00,1065.95
473.00,1140.29
460.00,1133.30
450.00,1098.27
449.00,1037.51
0.00,960.43
0.00,854.71
0.00,573.38
0.00,272.84
0.00,-3.12
0.00,-196.65
0.00,-252.68
0.00,-172.86
478.00,72.22
463.00,294.47
450.00,571.42
473.00,855.43
456.00,1080.84
479.00,1211.27
0.00,1278.67
0.00,1132.75
0.00,731.48
0.00,239.72
0.00,-188.07
0.00,-436.64
0.00,-454.60
0.00,-300.81
0.00,-70.26
0.00,151.88
12.00,278.63
463.00,398.73
449.00,450.13
474.00,566.11
460.00,733.06
447.00,921.32
473.00,1078.79
461.00,1167.65
451.00,1184.79
0.00,1150.41
0.00,980.03
0.00,635.94
0.00,217.89
0.00,-134.65
0.00,-333.09
0.00,-350.36
0.00,-229.11
463.00,67.89
451.00,316.59
476.00,608.31
462.00,877.61
449.00,1080.39
475.00,1192.32
463.00,1197.41
452.00,1132.74
479.00,1049.71
463.00,972.11
370.00,908.61
0.00,908.22
0.00,861.92
0.00,666.87
0.00,380.14
0.00,79.28
0.00,-146.47
0.00,-245.00
462.00,-59.64
448.00,151.24
472.00,469.76
459.00,804.14
449.00,1080.94
471.00,1250.78
459.00,1278.31
450.00,1201.68
471.00,1083.17
457.00,961.52
0.00,844.15
0.00,755.01
0.00,570.20
0.00,330.54
0.00,89.16
1.00,-90.97
0.00,-170.25
0.00,-131.36
448.00,75.06
467.00,274.24
455.00,533.63
445.00,814.66
468.00,1056.59
458.00,1191.64
447.00,1221.55
471.00,1172.87
458.00,1070.12
0.00,936.76
0.00,779.32
0.00,511.32
0.00,224.07
0.00,-29.77
0.00,-183.42
0.00,-211.96
0.00,-146.77
0.00,-34.86
0.00,78.39
456.00,256.22
466.00,384.08
454.00,565.72
462.00,777.78
469.00,982.96
455.00,1123.79
447.00,1178.94
469.00,1172.02
459.00,1104.86
0.00,998.79
0.00,843.75
0.00,552.38
0.00,225.93
0.00,-54.69
0.00,-225.52
0.00,-254.43
0.00,-169.14
0.00,-39.45
466.00,200.74
453.00,373.82
468.00,596.57
470.00,831.91
459.00,1024.47
449.00,1144.18
477.00,1190.28
463.00,1152.23
452.00,1078.73
0.00,979.77
0.00,831.06
0.00,551.38
0.00,241.66
0.00,-38.33
0.00,-207.63
0.00,-243.65
0.00,-170.92
0.00,-44.84
0.00,80.73
471.00,269.69
460.00,398.67
448.00,577.98
474.00,790.87
462.00,986.57
450.00,1119.79
476.00,1181.96
272.00,1285.47
0.00,1145.67
0.00,868.18
0.00,484.45
0.00,83.16
0.00,-207.69
0.00,-323.52
0.00,-292.60
0.00,-145.55
0.00,36.31
0.00,164.87
462.00,333.10
452.00,427.05
480.00,576.45
466.00,769.50
455.00,959.68
446.00,1096.59
10.00,1242.78
0.00,1167.13
0.00,821.63
0.00,360.38
0.00,-91.78
0.00,-384.54
0.00,-449.77
0.00,-323.19
0.00,-114.54
0.00,112.00
415.00,315.26
454.00,458.52
459.00,622.16
467.00,785.75
455.00,950.70
478.00,1079.77
465.00,1130.43
452.00,1141.49
478.00,1112.20
0.00,1039.65
0.00,912.72
0.00,603.67
0.00,258.40
0.00,-44.66
0.00,-244.92
0.00,-289.51
0.00,-191.62
0.00,-58.85
269.00,174.40
456.00,356.27
449.00,526.99
471.00,742.22
457.00,930.23
446.00,1067.03
471.00,1152.04
460.00,1149.04
451.00,1099.13
0.00,1024.12
0.00,866.32
0.00,568.72
0.00,235.89
0.00,-67.05
0.00,-242.35
0.00,-269.26
0.00,-190.72
0.00,-45.59
475.00,204.86
458.00,376.80
448.00,603.01
473.00,839.42
460.00,1021.47
449.00,1142.30
478.00,1181.46
466.00,1141.98
458.00,1079.33
0.00,981.96
0.00,841.22
0.00,568.33
0.00,252.90
0.00,-29.48
0.00,-202.18
0.00,-249.63
0.00,-172.68
0.00,-47.29
0.00,74.82
480.00,273.18
463.00,404.05
452.00,583.94
474.00,802.78
471.00,999.38
459.00,1130.74
447.00,1185.00
474.00,1173.69
0.00,1097.43
0.00,919.78
0.00,593.68
0.00,208.71
0.00,-114.38
1.00,-295.11
0.00,-308.70
0.00,-201.99
0.00,-34.42
449.00,214.60
475.00,399.84
463.00,613.58
450.00,832.84
475.00,1021.75
461.00,1135.19
448.00,1167.84
472.00,1141.57
0.00,1062.24
0.00,893.26
0.00,578.84
0.00,218.36
0.00,-93.63
0.00,-271.81
0.00,-289.76
0.00,-195.37
0.00,-39.25
0.00,109.25
479.00,300.29
467.00,422.82
454.00,595.90
451.00,790.47
468.00,982.95
453.00,1110.88
480.00,1170.63
467.00,1162.87
454.00,1106.74
0.00,1020.12
0.00,874.52
0.00,575.12
0.00,239.85
0.00,-53.29
0.00,-235.93
0.00,-270.36
0.00,-181.30
0.00,-47.57
461.00,196.74
452.00,374.33
479.00,602.05
466.00,835.33
455.00,1027.09
445.00,1144.21
473.00,1186.95
460.00,1145.00
0.00,1056.87
0.00,881.28
0.00,566.08
0.00,205.36
0.00,-99.95
0.00,-272.96
0.00,-284.90
0.00,-188.36
0.00,-33.57
0.00,113.17
119.00,227.87
475.00,353.84
463.00,450.95
453.00,604.43
466.00,806.17
468.00,998.33
454.00,1126.66
479.00,1194.94
467.00,1182.57
457.00,1118.10
1.00,1027.65
0.00,868.95
1.00,567.13
0.00,235.16
0.00,-60.30
0.00,-237.18
0.00,-263.61
0.00,-182.02
0.00,-44.11
346.00,163.08
467.00,345.96
456.00,545.50
446.00,763.30
471.00,959.56
459.00,1096.83
448.00,1154.94
476.00,1147.66
466.00,1096.49
0.00,1010.68
0.00,864.36
0.00,578.37
0.00,249.85
0.00,-46.10
1.00,-223.16
0.00,-264.36
0.00,-183.99
0.00,-47.72
0.00,83.97
463.00,275.02
451.00,402.45
481.00,587.42
464.00,791.26
452.00,986.15
478.00,1128.54
467.00,1186.56
454.00,1174.41
444.00,1107.54
0.00,1008.40
0.00,845.23
0.00,548.04
0.00,217.22
0.00,-68.34
0.00,-237.04
0.00,-258.08
0.00,-173.30
0.00,-37.00
0.00,97.46
466.00,282.26
452.00,400.37
480.00,586.71
465.00,787.15
452.00,981.13
459.00,1124.29
466.00,1181.53
0.00,1198.04
0.00,1043.31
0.00,672.36
0.00,237.52
0.00,-148.17
0.00,-371.64
0.00,-388.44
0.00,-263.24
0.00,-61.78
0.00,134.34
477.00,335.86
464.00,458.16
452.00,622.67
478.00,805.33
467.00,980.17
453.00,1105.17
447.00,1152.04
467.00,1153.08
0.00,1097.20
0.00,926.39
0.00,610.91
0.00,227.39
0.00,-107.45
0.00,-290.14
0.00,-314.93
0.00,-215.01
414.00,58.58
451.00,296.37
478.00,572.07
467.00,845.40
455.00,1052.74
447.00,1169.92
476.00,1203.41
462.00,1142.75
452.00,1054.69
63.00,964.24
0.00,820.18
0.00,588.89
0.00,307.27
0.00,34.66
0.00,-143.34
0.00,-205.28
0.00,-155.46
354.00,44.89
447.00,253.94
476.00,504.18
462.00,776.55
451.00,1006.64
449.00,1151.76
472.00,1211.24
460.00,1169.39
452.00,1081.67
0.00,963.52
0.00,797.37
0.00,521.47
0.00,219.69
0.00,-49.37
0.00,-203.81
0.00,-226.99
0.00,-159.73
0.00,-33.91
0.00,86.63
0.00,149.85
0.00,160.51
0.00,110.44
70.00,68.09
467.00,153.28
457.00,261.96
449.00,470.54
0.00,808.56
0.00,1063.14
0.00,1033.09
0.00,758.73
0.00,325.94
0.00,-88.10
0.00,-350.83
0.00,-436.39
0.00,-336.26
19.00,-121.76
469.00,170.20
456.00,403.16
446.00,653.51
471.00,878.87
458.00,1053.13
447.00,1141.12
474.00,1149.39
461.00,1108.43
0.00,1020.48
0.00,858.60
0.00,573.17
0.00,230.56
0.00,-69.32
0.00,-237.41
0.00,-270.81
0.00,-185.77
0.00,-38.59
0.00,92.73
467.00,283.23
456.00,409.96
447.00,577.48
469.00,785.44
454.00,974.80
446.00,1101.25
468.00,1165.98
454.00,1153.12
0.00,1088.50
0.00,920.07
0.00,597.14
0.00,211.57
0.00,-111.61
0.00,-295.57
0.00,-314.05
0.00,-204.40
0.00,-38.16
0.00,116.63
479.00,313.32
467.00,431.67
452.00,599.32
476.00,801.81
465.00,984.74
452.00,1115.59
479.00,1180.25
467.00,1169.30
456.00,1113.54
0.00,1025.37
0.00,872.59
0.00,575.15
0.00,238.04
0.00,-58.35
0.00,-236.95
0.00,-270.00
0.00,-183.39
469.00,80.60
465.00,308.45
453.00,580.19
476.00,862.98
462.00,1078.85
447.00,1193.11
471.00,1216.50
456.00,1151.67
446.00,1050.74
0.00,924.67
0.00,774.37
0.00,510.75
0.00,228.54
0.00,-23.88
0.00,-178.70
1.00,-210.73
0.00,-147.16
0.00,-37.21
473.00,194.32
460.00,360.92
447.00,582.10
474.00,827.63
461.00,1022.84
449.00,1149.06
474.00,1194.57
462.00,1154.89
470.00,1087.63
0.00,983.03
0.00,836.42
0.00,559.38
0.00,247.81
0.00,-32.97
0.00,-203.62
0.00,-245.17
24.00,-165.06
479.00,92.79
468.00,315.93
457.00,590.37
445.00,867.52
469.00,1086.42
457.00,1196.80
446.00,1206.66
471.00,1144.30
459.00,1044.50
449.00,960.52
0.00,884.12
0.00,810.82
0.00,620.00
0.00,353.37
0.00,83.70
0.00,-116.87
0.00,-207.26
0.00,-190.03
461.00,43.69
450.00,253.72
477.00,539.95
461.00,831.32
446.00,1066.71
472.00,1210.63
458.00,1234.51
445.00,1168.18
0.00,1036.97
0.00,820.96
0.00,482.37
0.00,131.08
0.00,-146.19
0.00,-282.63
0.00,-266.87
0.00,-167.96
0.00,-7.95
57.00,146.31
444.00,309.62
469.00,432.72
455.00,598.67
478.00,798.02
467.00,985.54
451.00,1118.56
473.00,1181.77
458.00,1171.56
0.00,1114.24
0.00,936.88
0.00,609.32
0.00,216.67
0.00,-120.01
0.00,-304.47
0.00,-321.41
0.00,-215.32
120.00,0.22
471.00,252.51
459.00,456.36
447.00,688.66
471.00,908.03
461.00,1064.73
447.00,1148.13
472.00,1157.46
460.00,1106.70
451.00,1039.98
0.00,953.64
0.00,835.23
0.00,566.53
0.00,269.00
0.00,-6.84
0.00,-188.05
0.00,-244.48
0.00,-171.79
459.00,72.34
446.00,283.44
473.00,562.88
463.00,842.15
453.00,1065.23
479.00,1202.20
141.00,1327.07
0.00,1189.50
0.00,836.18
0.00,371.79
0.00,-71.32
0.00,-355.44
446.00,-202.64
472.00,15.59
456.00,371.81
445.00,783.49
470.00,1122.07
457.00,1318.20
446.00,1352.35
467.00,1248.65
455.00,1086.85
460.00,938.71
465.00,845.44
454.00,845.54
479.00,919.45
470.00,1015.29
457.00,1116.63
447.00,1170.44
476.00,1180.58
468.00,1149.99
458.00,1087.34
454.00,1030.08
361.00,968.80
0.00,943.14
0.00,855.33
0.00,625.41
0.00,313.07
447.00,237.28
470.00,204.81
458.00,351.31
445.00,632.31
471.00,951.66
460.00,1197.02
447.00,1322.72
280.00,1467.66
0.00,1268.79
0.00,891.25
0.00,403.04
0.00,-56.67
0.00,-349.43
0.00,-426.86
11.00,-299.93
0.00,-95.67
175.00,177.61
452.00,384.75
477.00,564.22
465.00,747.23
373.00,885.46
0.00,1083.38
0.00,1079.13
0.00,805.25
0.00,397.78
0.00,-28.15
0.00,-327.06
0.00,-419.34
0.00,-349.67
0.00,-160.70
0.00,59.27
0.00,203.88
0.00,260.09
0.00,197.16
0.00,103.08
0.00,-14.58
0.00,-103.55
0.00,-147.78
0.00,-99.99
0.00,-57.64
0.00,3.21
0.00,62.76
0.00,55.57
0.00,37.11
0.00,30.55
0.00,4.59
0.00,-12.26
0.00,-9.11
0.00,-17.10
0.00,-9.60
0.00,5.92
0.00,3.07
0.00,10.26
0.00,13.54
0.00,0.75
0.00,2.14
0.00,-0.78
0.00,-10.12
0.00,-2.37
0.00,-2.02
0.00,-4.44
0.00,5.44
0.00,2.72
0.00,-0.02
0.00,5.70
0.00,-1.22
0.00,-2.75
0.00,1.90
0.00,-4.17
0.00,-1.65
0.00,2.72
0.00,-2.47
0.00,1.54
0.00,3.08
0.00,-2.39
0.00,1.71
0.00,0.88
0.00,-3.27
0.00,1.60
0.00,-0.24
0.00,-2.32
0.00,2.55
0.00,-0.45
0.00,-1.16
0.00,2.62
0.00,-1.31
0.00,-0.72
0.00,1.94
0.00,-1.98
0.00,-0.02
0.00,1.55
0.00,-1.93
0.00,0.85
0.00,1.08
0.00,-1.79
0.00,1.27
0.00,0.32
0.00,-1.62
0.00,1.45
0.00,-0.30
165.00,40.76
478.00,195.36
465.00,354.22
454.00,587.73
445.00,844.12
0.00,1159.46
0.00,1260.18
0.00,1025.74
0.00,574.49
0.00,65.46
0.00,-326.84
0.00,-497.89
478.00,-237.30
464.00,51.77
453.00,451.98
476.00,865.80
466.00,1178.58
0.00,1474.78
0.00,1411.21
0.00,935.51
0.00,339.97
0.00,-231.21
0.00,-582.06
0.00,-637.18
456.00,-321.02
466.00,60.42
454.00,506.58
446.00,905.90
468.00,1197.40
49.00,1447.63
0.00,1332.30
0.00,877.94
0.00,302.74
0.00,-236.85
0.00,-549.88
131.00,-545.95
473.00,-219.44
463.00,168.35
452.00,606.29
480.00,994.15
467.00,1254.00
0.00,1450.39
0.00,1303.08
0.00,846.04
0.00,246.58
0.00,-285.46
0.00,-573.11
334.00,-394.20
446.00,-102.39
474.00,316.53
464.00,760.90
454.00,1112.72
447.00,1323.13
445.00,1352.23
6.00,1245.66
0.00,940.43
0.00,456.24
0.00,-24.08
0.00,-355.68
0.00,-479.17
451.00,-214.36
481.00,94.66
469.00,478.11
459.00,873.99
450.00,1168.45
475.00,1316.58
0.00,1375.40
0.00,1150.07
0.00,665.22
0.00,127.79
0.00,-319.78
0.00,-535.93
465.00,-252.33
452.00,22.58
478.00,436.97
466.00,870.00
454.00,1183.30
446.00,1350.91
0.00,1426.38
0.00,1169.64
0.00,661.28
0.00,92.39
0.00,-376.99
62.00,-558.57
446.00,-280.12
469.00,30.80
456.00,466.93
446.00,895.07
470.00,1204.10
457.00,1360.53
53.00,1419.50
0.00,1159.37
0.00,677.66
0.00,122.64
0.00,-329.27
66.00,-509.16
472.00,-251.38
459.00,48.15
448.00,474.75
472.00,899.22
461.00,1205.02
450.00,1359.69
0.00,1401.57
0.00,1145.62
0.00,641.60
0.00,74.38
0.00,-370.79
57.00,-546.56
476.00,-272.18
462.00,44.87
451.00,476.11
478.00,909.92
465.00,1219.34
453.00,1367.57
0.00,1409.78
0.00,1149.65
0.00,637.17
0.00,71.63
0.00,-375.38
14.00,-566.64
331.00,-314.07
464.00,-2.88
454.00,393.03
473.00,813.21
465.00,1131.23
454.00,1311.00
0.00,1407.15
0.00,1189.39
0.00,702.08
0.00,136.79
0.00,-335.83
0.00,-561.32
1.00,-530.28
461.00,-183.15
450.00,170.51
480.00,576.00
465.00,928.91
453.00,1183.81
400.00,1268.20
0.00,1270.52
0.00,1025.01
0.00,550.34
0.00,46.54
0.00,-336.48
0.00,-508.84
462.00,-234.10
450.00,54.90
473.00,452.79
458.00,864.18
447.00,1167.95
416.00,1308.43
0.00,1374.84
0.00,1123.05
0.00,619.05
0.00,73.44
0.00,-371.47
0.00,-566.43
0.00,-503.19
0.00,-289.10
0.00,0.38
0.00,237.39
0.00,331.97
0.00,311.05
0.00,199.11
0.00,20.90
0.00,-107.78
0.00,-178.69
0.00,-177.55
0.00,-99.26
0.00,-14.21
0.00,58.71
0.00,108.48
0.00,75.35
0.00,45.77
0.00,29.03
0.00,-7.42
0.00,-17.13
0.00,-10.80
0.00,-17.52
0.00,-0.05
0.00,13.40
0.00,6.94
0.00,16.40
0.00,11.77
140.00,31.96
0.00,23.69
0.00,66.38
0.00,92.44
0.00,82.65
0.00,52.60
0.00,25.65
0.00,12.79
0.00,-9.49
0.00,-13.86
316.00,75.13
447.00,216.24
473.00,425.92
462.00,684.61
451.00,932.35
477.00,1134.82
464.00,1228.42
451.00,1217.68
479.00,1156.02
467.00,1056.01
453.00,969.85
457.00,937.14
472.00,948.52
460.00,989.37
449.00,1048.42
474.00,1100.01
461.00,1121.63
450.00,1119.34
476.00,1099.11
462.00,1065.82
451.00,1038.34
476.00,1027.18
466.00,1028.62
452.00,1039.80
468.00,1058.75
467.00,1076.49
456.00,1081.87
445.00,1074.42
470.00,1072.36
456.00,1054.48
446.00,1038.14
469.00,1039.11
457.00,1034.50
445.00,1035.48
470.00,1050.75
457.00,1052.68
445.00,1053.75
470.00,1061.79
457.00,1054.39
447.00,1048.80
472.00,1052.46
459.00,1046.20
447.00,1045.16
473.00,1054.13
460.00,1052.84
449.00,1054.62
475.00,1062.75
464.00,1060.55
452.00,1059.97
479.00,1066.45
468.00,1064.76
455.00,1065.00
445.00,1060.65
470.00,1062.84
464.00,1058.65
456.00,1052.22
185.00,1122.80
0.00,1059.52
1.00,859.05
0.00,556.92
0.00,185.83
25.00,-106.05
466.00,-30.58
454.00,98.44
446.00,382.11
468.00,755.34
454.00,1071.95
445.00,1277.22
452.00,1340.45
173.00,1341.86
0.00,1081.27
0.00,692.05
0.00,215.35
0.00,-170.89
0.00,-375.52
0.00,-381.37
189.00,-194.32
454.00,113.15
446.00,410.30
469.00,726.06
456.00,982.51
445.00,1143.27
93.00,1296.13
0.00,1175.67
0.00,781.01
0.00,313.57
0.00,-131.07
0.00,-407.90
0.00,-461.39
0.00,-323.39
187.00,-43.06
463.00,253.97
451.00,503.99
477.00,773.01
463.00,986.53
429.00,1108.31
0.00,1217.78
0.00,1099.46
1.00,712.86
0.00,255.41
0.00,-168.59
0.00,-419.76
0.00,-444.74
0.00,-307.94
125.00,-44.54
475.00,256.49
466.00,486.22
454.00,734.00
447.00,947.98
471.00,1087.67
0.00,1208.50
0.00,1120.23
0.00,733.69
0.00,292.47
0.00,-134.46
0.00,-404.37
0.00,-446.57
0.00,-315.49
45.00,-90.25
447.00,211.37
473.00,435.22
461.00,677.28
450.00,902.06
472.00,1059.31
0.00,1210.64
0.00,1150.90
0.00,806.49
0.00,351.60
0.00,-95.89
0.00,-392.39
0.00,-453.11
0.00,-349.27
391.00,-44.28
445.00,262.43
468.00,569.42
460.00,858.26
451.00,1080.21
353.00,1143.74
0.00,1188.16
0.00,994.36
0.00,566.79
0.00,109.62
0.00,-265.74
0.00,-457.68
0.00,-417.10
0.00,-266.36
468.00,64.49
457.00,349.09
448.00,628.67
475.00,895.28
465.00,1093.08
155.00,1298.36
0.00,1237.78
0.00,936.57
0.00,465.13
0.00,-2.52
0.00,-330.91
0.00,-455.91
0.00,-375.94
0.00,-172.00
393.00,118.77
472.00,375.68
459.00,623.98
449.00,851.21
476.00,1039.77
359.00,1101.67
0.00,1154.45
0.00,998.67
0.00,634.25
0.00,185.87
0.00,-192.97
0.00,-402.09
360.00,-197.26
448.00,41.85
474.00,386.31
463.00,773.32
450.00,1086.83
475.00,1283.22
0.00,1412.17
0.00,1230.23
0.00,782.13
0.00,218.58
0.00,-276.53
0.00,-535.44
0.00,-529.19
0.00,-357.55
469.00,24.41
456.00,341.54
446.00,648.38
470.00,935.27
458.00,1116.30
409.00,1164.30
0.00,1175.39
0.00,975.89
0.00,571.37
0.00,136.72
0.00,-231.71
0.00,-416.40
0.00,-386.87
0.00,-256.34
479.00,72.22
464.00,347.12
452.00,623.61
454.00,893.09
469.00,1094.68
377.00,1146.20
0.00,1183.66
0.00,998.28
0.00,588.03
0.00,143.64
0.00,-232.83
0.00,-430.53
0.00,-403.05
0.00,-264.54
470.00,61.56
459.00,342.67
448.00,621.26
477.00,894.89
468.00,1096.50
363.00,1146.83
0.00,1186.28
0.00,1001.31
0.00,585.12
0.00,135.52
0.00,-239.40
0.00,-438.10
1.00,-407.72
38.00,-253.61
459.00,67.14
448.00,354.71
474.00,646.57
464.00,906.04
454.00,1101.87
288.00,1346.12
0.00,1282.70
0.00,1016.32
0.00,566.07
0.00,94.16
0.00,-261.07
0.00,-425.25
460.00,-182.81
450.00,83.48
478.00,458.85
467.00,850.61
452.00,1150.93
446.00,1305.75
330.00,1493.22
0.00,1290.38
0.00,908.82
0.00,421.44
0.00,-52.31
0.00,-356.25
0.00,-433.12
0.00,-339.98
449.00,-13.98
474.00,289.63
459.00,601.06
447.00,902.15
472.00,1123.77
162.00,1346.84
0.00,1281.10
0.00,947.98
0.00,455.47
0.00,-27.09
0.00,-368.18
0.00,-480.16
0.00,-385.76
104.00,-138.51
470.00,184.67
456.00,451.12
446.00,715.31
469.00,952.03
460.00,1100.35
156.00,1267.25
0.00,1182.68
0.00,873.85
0.00,433.36
0.00,-6.47
0.00,-314.73
0.00,-416.14
465.00,-171.78
452.00,105.28
478.00,487.74
464.00,859.64
452.00,1144.89
447.00,1294.23
282.00,1446.15
0.00,1245.44
0.00,834.80
0.00,355.73
0.00,-91.98
0.00,-371.97
0.00,-437.54
83.00,-285.20
465.00,35.89
455.00,336.35
447.00,656.26
468.00,950.81
459.00,1141.86
258.00,1377.27
0.00,1289.93
0.00,976.88
0.00,510.39
0.00,31.26
0.00,-315.81
0.00,-443.91
455.00,-197.06
446.00,82.15
469.00,470.29
458.00,850.12
448.00,1140.81
446.00,1292.81
101.00,1384.78
0.00,1170.75
0.00,750.89
0.00,221.56
0.00,-226.69
0.00,-465.30
0.00,-468.98
119.00,-277.68
447.00,64.42
472.00,387.12
459.00,702.08
448.00,970.28
470.00,1146.76
235.00,1343.35
0.00,1240.64
0.00,924.55
0.00,469.21
0.00,10.60
0.00,-313.59
0.00,-426.32
0.00,-355.79
319.00,-59.19
457.00,234.69
447.00,527.18
471.00,824.48
460.00,1050.02
451.00,1169.67
0.00,1245.49
0.00,1095.86
0.00,701.74
0.00,224.96
0.00,-196.40
0.00,-434.38
99.00,-411.27
463.00,-117.32
452.00,205.09
476.00,599.85
464.00,943.50
454.00,1187.59
447.00,1291.08
0.00,1291.51
0.00,1058.31
0.00,600.29
0.00,91.17
0.00,-304.83
0.00,-489.47
0.00,-450.10
383.00,-142.66
476.00,186.40
462.00,538.74
451.00,870.46
478.00,478.00
459.00,459.00
0.00,0.00
0.00,0.00
0.00,0.00
0.00,0.00
0.00,0.00
0.00,0.00
30.00,30.00
468.00,468.00
456.00,456.00
446.00,446.00
474.00,474.00
461.00,461.00
451.00,451.00
0.00,0.00
0.00,0.00
0.00,0.00
0.00,0.00
0.00,0.00
0.00,0.00
0.00,0.00
448.00,448.00
475.00,475.00
462.00,462.00
447.00,447.00
466.00,466.00
451.00,451.00
0.00,0.00
0.00,0.00
0.00,0.00
0.00,0.00
0.00,0.00
0.00,0.00
177.00,177.00
447.00,447.00
473.00,473.00
462.00,462.00
449.00,449.00
476.00,476.00
466.00,466.00
0.00,0.00
0.00,0.00
0.00,0.00
0.00,0.00
0.00,0.00
0.00,0.00
0.00,0.00
470.00,470.00
455.00,455.00
447.00,447.00
470.00,470.00
459.00,459.00
337.00,337.00
0.00,0.00
0.00,0.00
0.00,0.00
0.00,0.00
0.00,0.00
0.00,0.00
0.00,0.00
0.00,0.00
468.00,468.00
454.00,454.00
480.00,480.00
468.00,468.00
454.00,454.00
350.00,350.00
0.00,0.00
0.00,0.00
0.00,0.00
0.00,0.00
0.00,0.00
0.00,0.00
243.00,243.00
472.00,472.00
458.00,458.00
449.00,449.00
472.00,472.00
458.00,458.00
412.00,412.00
0.00,0.00
0.00,0.00
0.00,0.00
0.00,0.00
0.00,0.00
0.00,0.00
0.00,0.00
469.00,469.00
456.00,456.00
444.00,444.00
468.00,468.00
455.00,455.00
443.00,443.00
418.00,1203.30
0.00,1090.35
0.00,838.95
0.00,448.06
0.00,53.78
0.00,-238.92
0.00,-361.13
0.00,-311.51
446.00,-28.54
469.00,243.32
456.00,561.98
446.00,865.40
470.00,1102.94
457.00,1219.13
185.00,1329.08
0.00,1163.88
0.00,778.05
0.00,330.40
0.00,-88.09
0.00,-352.84
0.00,-413.27
47.00,-276.31
446.00,27.97
468.00,318.52
457.00,627.38
449.00,913.53
473.00,473.00
462.00,462.00
451.00,451.00
0.00,0.00
0.00,0.00
0.00,0.00
1.00,1.00
0.00,0.00
0.00,0.00
0.00,0.00
178.00,178.00
479.00,479.00
465.00,465.00
454.00,454.00
445.00,445.00
472.00,472.00
139.00,139.00
0.00,0.00
0.00,0.00
0.00,0.00
0.00,0.00
0.00,0.00
0.00,0.00
10.00,10.00
447.00,447.00
472.00,278.96
460.00,602.19
450.00,902.25
475.00,1127.85
43.00,1319.78
0.00,1241.11
0.00,869.66
0.00,354.58
0.00,-131.44
0.00,-440.54
0.00,-510.12
0.00,-353.84
252.00,-35.81
452.00,266.19
481.00,554.10
467.00,824.69
458.00,1034.95
449.00,1151.40
95.00,1258.42
0.00,1122.19
0.00,743.54
0.00,303.11
0.00,-113.10
0.00,-370.93
54.00,-401.50
476.00,-127.31
460.00,172.33
449.00,547.69
479.00,479.00
467.00,467.00
469.00,469.00
0.00,0.00
0.00,0.00
0.00,0.00
0.00,0.00
0.00,0.00
0.00,0.00
0.00,0.00
199.00,199.00
470.00,470.00
458.00,458.00
447.00,447.00
473.00,473.00
461.00,461.00
274.00,274.00
0.00,0.00
0.00,0.00
0.00,0.00
0.00,0.00
0.00,0.00
26.00,26.00
451.00,451.00
475.00,475.00
464.00,464.00
452.00,863.72
461.00,1153.85
445.00,1293.54
0.00,1348.43
0.00,1131.11
0.00,656.96
0.00,121.22
0.00,-313.17
0.00,-525.42
0.00,-490.89
449.00,-155.38
467.00,181.68
456.00,563.60
446.00,906.55
472.00,1157.06
460.00,1262.78
38.00,1290.53
0.00,1079.43
0.00,650.46
0.00,159.65
0.00,-243.78
0.00,-450.18
11.00,-433.01
324.00,-156.87
471.00,163.56
461.00,461.00
449.00,449.00
474.00,474.00
463.00,463.00
170.00,170.00
0.00,0.00
0.00,0.00
0.00,0.00
0.00,0.00
0.00,0.00
0.00,0.00
263.00,263.00
459.00,459.00
450.00,450.00
476.00,476.00
466.00,466.00
452.00,452.00
105.00,105.00
0.00,0.00
0.00,0.00
0.00,0.00
0.00,0.00
0.00,0.00
0.00,-476.01
0.00,-324.44
475.00,17.02
466.00,315.89
453.00,632.48
446.00,918.97
472.00,1126.32
382.00,1179.94
0.00,1192.84
0.00,984.20
0.00,564.90
0.00,109.03
0.00,-260.26
0.00,-439.91
25.00,-396.65
310.00,-125.81
453.00,179.41
458.00,510.05
467.00,821.39
456.00,1061.78
448.00,1196.24
0.00,0.00
0.00,0.00
0.00,0.00
0.00,0.00
0.00,0.00
0.00,0.00
0.00,0.00
459.00,459.00
450.00,450.00
477.00,477.00
464.00,464.00
453.00,453.00
443.00,443.00
351.00,351.00
0.00,0.00
0.00,0.00
0.00,0.00
0.00,0.00
0.00,0.00
0.00,0.00
0.00,0.00
462.00,-7.08
453.00,266.83
479.00,594.66
462.00,889.70
450.00,1109.70
370.00,1192.16
0.00,1223.02
0.00,1012.73
0.00,581.82
0.00,101.34
0.00,-282.34
0.00,-465.73
243.00,-352.00
450.00,-49.13
477.00,313.93
464.00,702.40
452.00,1028.07
446.00,1230.44
395.00,1268.88
0.00,1211.92
0.00,936.08
0.00,0.00
0.00,0.00
0.00,0.00
0.00,0.00
37.00,37.00
457.00,457.00
446.00,446.00
473.00,473.00
461.00,461.00
447.00,447.00
475.00,475.00
458.00,458.00
0.00,0.00
0.00,0.00
0.00,0.00
0.00,0.00
0.00,0.00
0.00,-347.56
80.00,-289.81
464.00,-14.11
452.00,264.23
477.00,608.31
466.00,917.55
451.00,1142.82
123.00,1387.74
0.00,1303.27
0.00,939.90
0.00,425.90
0.00,-86.56
0.00,-420.54
0.00,-510.15
0.00,-403.44
0.00,-159.53
0.00,98.61
0.00,263.77
0.00,319.32
0.00,0.00
0.00,0.00
0.00,0.00
0.00,0.00
0.00,0.00
0.00,0.00
0.00,0.00
0.00,0.00
22.00,22.00
467.00,467.00
458.00,458.00
448.00,448.00
475.00,475.00
452.00,452.00
0.00,0.00
0.00,0.00
0.00,0.00
0.00,0.00
0.00,0.00
0.00,0.00
0.00,0.00
0.00,-420.05
56.00,-178.53
454.00,150.73
446.00,406.62
468.00,690.09
457.00,921.71
442.00,1071.97
0.00,1212.77
0.00,1119.13
0.00,734.93
0.00,283.45
0.00,-152.58
0.00,-418.23
0.00,-456.27
0.00,-324.03
81.00,-75.14
461.00,229.34
450.00,450.62
477.00,707.05
463.00,463.00
454.00,454.00
0.00,0.00
0.00,0.00
0.00,0.00
0.00,0.00
0.00,0.00
0.00,0.00
0.00,0.00
450.00,450.00
477.00,477.00
466.00,466.00
455.00,455.00
452.00,452.00
467.00,467.00
361.00,361.00
0.00,0.00
0.00,0.00
0.00,0.00
0.00,-32.39
0.00,-322.74
0.00,-425.78
450.00,-160.11
475.00,121.29
463.00,480.85
450.00,863.04
471.00,1143.22
458.00,1284.38
450.00,1295.44
351.00,1146.46
0.00,949.99
0.00,651.74
0.00,287.64
0.00,-23.24
0.00,-228.40
0.00,-299.09
460.00,-70.10
447.00,447.00
473.00,473.00
460.00,460.00
449.00,449.00
474.00,474.00
466.00,466.00
455.00,455.00
149.00,149.00
0.00,0.00
0.00,0.00
0.00,0.00
0.00,0.00
0.00,0.00
456.00,456.00
446.00,446.00
471.00,471.00
459.00,459.00
447.00,447.00
475.00,475.00
463.00,1306.19
433.00,1218.36
0.00,1057.56
0.00,807.34
0.00,423.88
0.00,60.52
0.00,-201.32
0.00,-321.93
474.00,-93.75
458.00,146.81
446.00,471.25
468.00,841.45
454.00,1114.42
451.00,1259.08
468.00,1289.19
458.00,1190.18
451.00,1052.63
285.00,978.44
0.00,811.85
0.00,656.82
0.00,450.95
0.00,205.70
12.00,14.51
448.00,106.11
473.00,200.18
459.00,438.21
447.00,748.29
466.00,1032.13
455.00,1234.01
445.00,1299.14
182.00,1333.06
0.00,1115.92
0.00,723.49
0.00,264.19
0.00,-123.48
0.00,-357.06
463.00,-148.22
467.00,81.40
454.00,424.54
447.00,818.19
468.00,1139.72
459.00,1308.15
450.00,1333.42
0.00,1237.27
0.00,944.97
0.00,491.26
0.00,22.21
0.00,-320.97
0.00,-448.69
0.00,-382.67
70.00,-165.48
468.00,155.70
457.00,414.35
445.00,683.87
470.00,931.83
459.00,1090.31
447.00,1159.70
0.00,1179.51
0.00,1012.11
0.00,652.01
1.00,211.14
0.00,-172.80
0.00,-380.06
0.00,-388.68
448.00,-110.47
472.00,184.51
459.00,535.74
447.00,869.55
472.00,1134.71
459.00,1258.34
449.00,1248.39
475.00,1175.03
462.00,897.81
264.00,870.20
0.00,778.76
0.00,503.68
0.00,153.79
0.00,-134.29
0.00,-335.97
0.00,-350.06
472.00,17.35
460.00,360.97
448.00,819.14
473.00,1254.49
379.00,1470.12
0.00,1879.10
0.00,1440.41
0.00,545.26
0.00,-325.15
0.00,-947.92
475.00,-564.90
460.00,-64.98
448.00,545.49
473.00,1241.97
458.00,1716.88
447.00,1764.72
472.00,1736.08
0.00,1607.70
0.00,1221.08
0.00,645.45
0.00,58.76
0.00,-380.59
0.00,-544.92
0.00,-466.16
0.00,-234.68
0.00,56.08
0.00,267.89
0.00,345.68
447.00,426.02
471.00,434.98
458.00,519.03
446.00,691.05
469.00,891.14
448.00,1062.34
476.00,1185.85
0.00,1260.52
0.00,1007.98
0.00,288.26
0.00,-385.16
0.00,-814.92
0.00,-844.35
0.00,-628.17
0.00,-188.81
0.00,191.66
0.00,445.62
0.00,468.36
0.00,424.56
0.00,131.97
0.00,-90.33
0.00,-153.91
123.00,-158.31
476.00,-13.28
461.00,433.58
450.00,889.72
474.00,1080.83
0.00,1374.51
0.00,1457.17
0.00,1187.81
0.00,685.24
0.00,116.05
0.00,-326.87
0.00,-528.60
0.00,-494.52
0.00,-279.89
463.00,83.74
451.00,366.03
476.00,671.56
460.00,927.18
446.00,1093.76
471.00,1178.22
456.00,1160.17
451.00,1084.88
466.00,1010.15
308.00,1008.67
0.00,921.12
0.00,668.16
0.00,221.53
0.00,-132.58
0.00,-380.38
0.00,-414.69
0.00,-391.41
0.00,-124.52
0.00,-71.35
80.00,206.21
448.00,342.00
471.00,606.82
458.00,892.65
447.00,1153.78
471.00,1227.14
460.00,1271.12
448.00,1264.71
470.00,1215.82
299.00,1208.99
0.00,913.19
0.00,717.51
0.00,428.56
0.00,114.45
0.00,-128.24
0.00,-240.52
0.00,-234.57
0.00,-145.64
0.00,-2.11
0.00,108.13
55.00,183.14
455.00,304.38
478.00,390.18
466.00,552.83
451.00,764.17
476.00,978.89
451.00,1134.47
461.00,1209.32
469.00,1198.17
455.00,1130.89
0.00,1017.32
0.00,840.60
0.00,219.50
0.00,-268.11
0.00,-537.04
0.00,-541.51
45.00,-454.79
474.00,113.48
460.00,554.47
446.00,995.32
476.00,1359.17
461.00,1429.71
451.00,1446.26
0.00,1430.62
0.00,949.77
0.00,145.92
0.00,-543.75
0.00,-938.54
465.00,-451.65
450.00,-240.42
478.00,157.59
462.00,627.81
450.00,1043.70
477.00,1310.48
464.00,1395.06
404.00,1296.49
0.00,1079.22
0.00,728.41
0.00,296.49
0.00,-88.33
0.00,-323.67
0.00,-381.84
0.00,-257.84
0.00,-72.91
0.00,105.77
0.00,0.00
149.00,149.00
452.00,452.00
474.00,474.00
463.00,463.00
452.00,452.00
122.00,122.00
0.00,0.00
0.00,0.00
0.00,0.00
0.00,0.00
0.00,0.00
0.00,0.00
0.00,0.00
0.00,0.00
0.00,0.00
0.00,0.00
0.00,0.00
0.00,0.00
158.00,158.00
470.00,470.00
456.00,456.00
445.00,445.00
469.00,469.00
0.00,0.00
0.00,0.00
0.00,0.00
0.00,0.00
0.00,0.00
0.00,0.00
0.00,0.00
0.00,0.00
0.00,-138.92
448.00,366.10
473.00,742.65
461.00,1105.52
446.00,1340.24
474.00,1385.44
0.00,1638.16
0.00,1186.81
0.00,334.67
0.00,-370.17
0.00,-876.20
0.00,-913.70
0.00,-803.51
0.00,-554.63
0.00,-248.08
450.00,110.57
475.00,366.38
461.00,628.99
448.00,858.61
475.00,1029.10
224.00,1261.95
0.00,1220.68
0.00,963.42
0.00,556.80
0.00,97.70
0.00,-251.79
0.00,-396.99
76.00,-348.70
448.00,-52.56
472.00,265.43
456.00,456.00
445.00,445.00
470.00,470.00
448.00,448.00
0.00,0.00
0.00,0.00
0.00,0.00
0.00,0.00
0.00,0.00
0.00,0.00
0.00,0.00
466.00,466.00
456.00,456.00
446.00,446.00
469.00,469.00
458.00,458.00
400.00,400.00
0.00,0.00
0.00,0.00
0.00,0.00
0.00,0.00
0.00,0.00
0.00,0.00
16.00,16.00
427.00,427.00
470.00,470.00
459.00,459.00
448.00,1431.65
471.00,1488.07
459.00,1476.95
0.00,1426.29
0.00,880.07
0.00,92.20
0.00,-559.31
0.00,-927.70
0.00,-909.49
7.00,-538.56
470.00,99.07
457.00,616.30
447.00,1104.25
470.00,1439.60
457.00,1498.37
450.00,1491.31
332.00,1532.84
0.00,1294.01
0.00,922.90
0.00,458.76
0.00,26.72
0.00,-267.66
0.00,-363.22
35.00,-277.51
449.00,13.20
476.00,298.61
462.00,612.22
446.00,903.25
470.00,1126.17
422.00,1209.65
0.00,1238.69
0.00,1044.62
0.00,622.00
0.00,145.70
0.00,-247.49
0.00,-449.75
0.00,-429.47
193.00,-198.54
461.00,119.99
450.00,432.39
473.00,746.95
458.00,1000.92
446.00,1160.03
79.00,1291.02
0.00,1161.59
0.00,771.30
0.00,292.26
1.00,1.00
0.00,0.00
3.00,3.00
447.00,447.00
469.00,469.00
456.00,456.00
448.00,448.00
467.00,467.00
373.00,373.00
0.00,0.00
0.00,0.00
0.00,0.00
0.00,0.00
0.00,0.00
0.00,0.00
137.00,137.00
446.00,446.00
470.00,470.00
457.00,457.00
445.00,445.00
471.00,471.00
383.00,383.00
0.00,0.00
0.00,0.00
1.00,1.00
0.00,0.00
0.00,0.00
0.00,0.00
268.00,268.00
447.00,447.00
471.00,350.13
459.00,729.17
447.00,1039.62
472.00,1233.37
473.00,1283.91
108.00,1266.95
0.00,1030.62
0.00,657.27
0.00,204.30
0.00,-169.15
0.00,-364.96
0.00,-365.76
457.00,-82.34
447.00,196.94
470.00,546.43
458.00,874.52
446.00,1401.43
471.00,1432.80
0.00,1406.30
0.00,918.58
0.00,124.40
0.00,-556.86
0.00,-932.75
0.00,-923.49
92.00,-528.71
467.00,130.55
453.00,667.17
481.00,1181.70
468.00,1511.15
453.00,1555.86
469.00,1539.08
0.00,1454.06
0.00,847.42
0.00,34.78
0.00,-624.95
0.00,-950.40
0.00,-921.06
0.00,-528.00
468.00,127.30
454.00,628.12
446.00,1100.99
464.00,1436.95
452.00,1487.13
444.00,1474.64
0.00,1411.88
0.00,850.37
0.00,59.10
0.00,0.00
0.00,0.00
0.00,0.00
465.00,465.00
452.00,452.00
479.00,479.00
466.00,466.00
454.00,454.00
454.00,454.00
467.00,467.00
452.00,452.00
445.00,445.00
470.00,470.00
141.00,141.00
0.00,0.00
0.00,0.00
0.00,0.00
0.00,0.00
0.00,0.00
449.00,449.00
475.00,475.00
462.00,462.00
451.00,451.00
476.00,476.00
461.00,461.00
453.00,453.00
249.00,249.00
0.00,0.00
0.00,0.00
0.00,0.00
0.00,0.00
0.00,0.00
0.00,0.00
461.00,461.00
451.00,451.00
478.00,478.00
465.00,465.00
454.00,454.00
399.00,399.00
0.00,0.00
0.00,0.00
0.00,616.88
0.00,95.52
0.00,-320.10
0.00,-519.61
130.00,-433.53
470.00,-98.93
455.00,251.48
476.00,654.32
467.00,992.99
455.00,1212.91
448.00,1291.29
0.00,1264.22
0.00,1015.87
0.00,563.38
0.00,72.80
0.00,-305.22
0.00,-472.25
0.00,-424.88
472.00,-94.94
457.00,216.75
449.00,574.21
471.00,910.60
458.00,1144.19
414.00,1234.83
0.00,1256.42
0.00,1037.21
0.00,593.50
0.00,104.32
0.00,-288.81
0.00,-476.13
470.00,-214.08
458.00,55.54
449.00,440.26
473.00,856.25
461.00,1161.14
441.00,1319.24
359.00,1296.67
0.00,1162.75
0.00,835.15
0.00,365.42
0.00,-83.77
0.00,-375.24
0.00,-457.24
0.00,-351.48
0.00,-134.41
0.00,88.92
457.00,321.47
445.00,463.30
471.00,636.74
458.00,811.61
450.00,971.68
0.00,1146.23
0.00,1136.62
0.00,857.88
0.00,426.47
0.00,-17.41
0.00,-327.69
0.00,-435.42
0.00,-363.00
0.00,-166.73
0.00,54.92
0.00,211.36
0.00,271.36
53.00,244.78
458.00,290.89
468.00,334.25
458.00,478.36
449.00,701.04
478.00,954.41
0.00,1248.22
0.00,1317.24
0.00,1049.37
0.00,567.62
0.00,39.09
0.00,-354.56
0.00,-517.58
0.00,-460.07
0.00,-241.04
0.00,24.54
0.00,226.51
181.00,377.36
476.00,461.86
465.00,515.69
452.00,639.90
461.00,808.65
123.00,1080.45
0.00,1191.48
0.00,1048.48
0.00,694.59
0.00,243.78
0.00,-154.84
261.00,-292.89
468.00,-124.97
